Output Voltage (V) Time (s) Input Voltage (V) 
0.0 0.0 -0.000429744745998585 
0.1 0.5 0.100062668334842 
0.2 0.733999999938533 0.200061664988289 
0.3 1.03099999995902 0.300225135302226 
0.4 1.26500000013039 0.399895193054405 
0.5 1.51500000013039 0.50005867244274 
0.6 1.75 0.599728743088179 
0.7 2.03099999995902 0.699727767228322 
0.8 2.28099999995902 0.799726802690279 
0.9 2.51500000013039 0.900219267810341 
1.0 2.75 0.999889387503247 
1.1 2.98399999993853 1.10005294079661 
1.2 3.21900000004098 1.19955862436229 
1.3 3.48399999993853 1.2998866900317 
1.4 3.73399999993853 1.3997213619357 
1.5 3.98399999993853 1.49988500334728 
1.6 4.23399999993853 1.60004867170308 
1.7 4.48399999993853 1.70021236895405 
1.8 4.73399999993853 1.79988267959255 
1.9 4.95299999997951 1.90004644032033 
2.0 5.20299999997951 2.00004576318641 
2.1 5.43700000015087 2.09971617729488 
2.2 5.67200000002049 2.20004452055714 
2.3 5.90599999995902 2.29987948614972 
2.4 6.125 2.39955002112374 
2.5 6.35899999993853 2.50004296482994 
2.6 6.625 2.60004253621073 
2.7 6.85899999993853 2.70004215580536 
2.8 7.09400000004098 2.79987735237191 
2.9 7.31200000015087 2.89987707413099 
3.0 7.57799999997951 3.0000413232858 
3.1 7.79700000002049 3.10020562860415 
3.2 8.01500000013039 3.19987657138184 
3.3 8.26500000013039 3.30004099457941 
3.4 8.5 3.40020547978375 
3.5 8.71900000004098 3.50020555508415 
3.6 8.93700000015087 3.60004122210263 
3.7 9.15599999995902 3.70020590469384 
3.8 9.375 3.79987723448614 
3.9 9.60899999993853 3.89987758395294 
4.0 9.84400000004098 4.0000424813093 
4.1 10.1089999999385 4.10004297973943 
4.2 10.344000000041 4.20004355550365 
4.3 10.5779999999795 4.30037316019942 
4.4 10.7970000000205 4.40004494679975 
4.5 11.0470000000205 4.50021024131582 
4.6 11.280999999959 4.60004667072839 
4.7 11.5 4.69988318689571 
4.8 11.7339999999385 4.79971979174956 
4.9 11.969000000041 4.9002143899679 
5.0 12.2029999999795 5.00021565444774 
